-0.145
-0.145
-0.145
-0.145
-0.145
-0.145
-0.145
-0.145
-0.120
-0.135
-0.145
-0.150
-0.160
-0.155
-0.160
-0.175
-0.180
-0.185
-0.170
-0.155
-0.175
-0.180
-0.190
-0.180
-0.155
-0.135
-0.155
-0.190
-0.205
-0.235
-0.225
-0.245
-0.250
-0.260
-0.275
-0.275
-0.275
-0.265
-0.255
-0.265
-0.275
-0.290
-0.290
-0.290
-0.290
-0.285
-0.295
-0.305
-0.285
-0.275
-0.275
-0.280
-0.285
-0.305
-0.290
-0.300
-0.280
-0.290
-0.300
-0.315
-0.320
-0.335
-0.360
-0.385
-0.385
-0.405
-0.455
-0.485
-0.485
-0.425
-0.330
-0.220
-0.070
 0.120
 0.375
 0.620
 0.780
 0.840
 0.765
 0.520
 0.170
-0.165
-0.365
-0.435
-0.425
-0.370
-0.330
-0.325
-0.335
-0.345
-0.330
-0.325
-0.315
-0.310
-0.320
-0.335
-0.340
-0.325
-0.345
-0.335
-0.330
-0.335
-0.330
-0.325
-0.330
-0.330
-0.345
-0.355
-0.335
-0.325
-0.305
-0.320
-0.320
-0.330
-0.340
-0.335
-0.340
-0.345
-0.355
-0.355
-0.340
-0.330
-0.330
-0.330
-0.340
-0.350
-0.325
-0.325
-0.330
-0.330
-0.335
-0.335
-0.340
-0.330
-0.340
-0.350
-0.355
-0.350
-0.345
-0.330
-0.320
-0.335
-0.330
-0.345
-0.330
-0.335
-0.335
-0.345
-0.345
-0.355
-0.340
-0.340
-0.335
-0.330
-0.350
-0.350
-0.345
-0.335
-0.335
-0.335
-0.350
-0.355
-0.355
-0.345
-0.345
-0.335
-0.350
-0.360
-0.360
-0.360
-0.365
-0.360
-0.370
-0.385
-0.370
-0.360
-0.355
-0.360
-0.375
-0.375
-0.365
-0.365
-0.360
-0.360
-0.365
-0.370
-0.355
-0.330
-0.325
-0.325
-0.335
-0.340
-0.315
-0.300
-0.300
-0.290
-0.295
-0.290
-0.285
-0.275
-0.255
-0.250
-0.250
-0.265
-0.255
-0.245
-0.230
-0.245
-0.245
-0.255
-0.255
-0.240
-0.250
-0.255
-0.245
-0.255
-0.250
-0.250
-0.265
-0.260
-0.260
-0.265
-0.270
-0.265
-0.260
-0.275
-0.280
-0.290
-0.275
-0.270
-0.260
-0.280
-0.280
-0.285
-0.275
-0.275
-0.265
-0.270
-0.285
-0.290
-0.280
-0.275
-0.285
-0.280
-0.300
-0.300
-0.305
-0.295
-0.300
-0.310
-0.310
-0.305
-0.295
-0.285
-0.285
-0.290
-0.295
-0.310
-0.290
-0.295
-0.300
-0.305
-0.310
-0.325
-0.310
-0.300
-0.290
-0.310
-0.325
-0.330
-0.315
-0.300
-0.305
-0.310
-0.320
-0.330
-0.325
-0.315
-0.310
-0.305
-0.305
-0.310
-0.300
-0.305
-0.290
-0.300
-0.300
-0.305
-0.305
-0.290
-0.280
-0.295
-0.305
-0.315
-0.305
-0.295
-0.290
-0.280
-0.270
-0.275
-0.275
-0.270
-0.250
-0.250
-0.255
-0.225
-0.220
-0.205
-0.200
-0.205
-0.215
-0.230
-0.220
-0.225
-0.225
-0.225
-0.230
-0.235
-0.240
-0.235
-0.220
-0.210
-0.205
-0.245
-0.285
-0.285
-0.300
-0.310
-0.330
-0.330
-0.325
-0.315
-0.320
-0.315
-0.325
-0.340
-0.345
-0.340
-0.340
-0.350
-0.345
-0.355
-0.330
-0.335
-0.330
-0.320
-0.345
-0.355
-0.340
-0.330
-0.325
-0.330
-0.350
-0.365
-0.360
-0.380
-0.425
-0.445
-0.475
-0.510
-0.535
-0.505
-0.415
-0.300
-0.160
-0.015
 0.235
 0.490
 0.720
 0.875
 0.940
 0.905
 0.755
 0.490
 0.165
-0.110
-0.270
-0.390
-0.450
-0.475
-0.455
-0.425
-0.390
-0.390
-0.385
-0.390
-0.380
-0.380
-0.380
-0.395
-0.385
-0.385
-0.385
-0.375
-0.395
-0.410
-0.410
-0.400
-0.395
-0.390
-0.405
-0.395
-0.385
-0.375
-0.390
-0.390
-0.405
-0.410
-0.410
-0.390
-0.390
-0.395
-0.405
-0.415
-0.400
-0.410
-0.405
-0.410
-0.415
-0.410
-0.400
-0.400
-0.395
-0.390
-0.405
-0.410
-0.390
-0.390
-0.385
-0.385
-0.410
-0.405
-0.395
-0.390
-0.375
-0.390
-0.395
-0.410
-0.400
-0.390
-0.390
-0.385
-0.405
-0.415
-0.415
-0.400
-0.395
-0.405
-0.415
-0.420
-0.420
-0.410
-0.415
-0.425
-0.420
-0.435
-0.430
-0.430
-0.420
-0.430
-0.450
-0.455
-0.450
-0.435
-0.445
-0.450
-0.455
-0.470
-0.460
-0.455
-0.450
-0.455
-0.470
-0.475
-0.460
-0.450
-0.445
-0.440
-0.435
-0.440
-0.410
-0.395
-0.370
-0.365
-0.360
-0.365
-0.340
-0.325
-0.315
-0.320
-0.330
-0.330
-0.320
-0.310
-0.300
-0.300
-0.320
-0.320
-0.315
-0.305
-0.305
-0.295
-0.320
-0.330
-0.305
-0.310
-0.300
-0.300
-0.320
-0.325
-0.310
-0.305
-0.315
-0.305
-0.315
-0.315
-0.310
-0.295
-0.290
-0.305
-0.310
-0.320
-0.315
-0.300
-0.315
-0.315
-0.315
-0.330
-0.315
-0.320
-0.315
-0.325
-0.335
-0.340
-0.335
-0.335
-0.330
-0.325
-0.345
-0.350
-0.345
-0.335
-0.330
-0.330
-0.345
-0.345
-0.345
-0.320
-0.330
-0.335
-0.340
-0.355
-0.335
-0.330
-0.330
-0.335
-0.355
-0.360
-0.355
-0.350
-0.340
-0.345
-0.345
-0.345
-0.345
-0.330
-0.330
-0.335
-0.345
-0.350
-0.350
-0.340
-0.330
-0.345
-0.345
-0.355
-0.350
-0.340
-0.330
-0.340
-0.340
-0.340
-0.330
-0.335
-0.330
-0.335
-0.345
-0.345
-0.340
-0.330
-0.315
-0.295
-0.300
-0.295
-0.285
-0.275
-0.265
-0.265
-0.265
-0.255
-0.250
-0.240
-0.225
-0.215
-0.240
-0.245
-0.240
-0.245
-0.235
-0.245
-0.250
-0.275
-0.275
-0.265
-0.250
-0.225
-0.220
-0.230
-0.265
-0.270
-0.280
-0.285
-0.305
-0.320
-0.340
-0.330
-0.335
-0.335
-0.355
-0.370
-0.360
-0.345
-0.350
-0.355
-0.365
-0.375
-0.380
-0.370
-0.365
-0.365
-0.380
-0.385
-0.380
-0.375
-0.355
-0.370
-0.390
-0.405
-0.410
-0.435
-0.465
-0.490
-0.520
-0.555
-0.570
-0.525
-0.405
-0.250
-0.090
 0.120
 0.410
 0.690
 0.885
 0.960
 0.850
 0.520
 0.050
-0.320
-0.500
-0.505
-0.445
-0.415
-0.395
-0.390
-0.395
-0.390
-0.395
-0.405
-0.395
-0.405
-0.390
-0.395
-0.395
-0.410
-0.405
-0.400
-0.400
-0.415
-0.405
-0.420
-0.415
-0.405
-0.405
-0.420
-0.420
-0.435
-0.420
-0.410
-0.410
-0.405
-0.425
-0.430
-0.420
-0.415
-0.410
-0.410
-0.425
-0.420
-0.400
-0.395
-0.400
-0.400
-0.395
-0.415
-0.405
-0.390
-0.400
-0.400
-0.415
-0.425
-0.425
-0.415
-0.415
-0.410
-0.425
-0.425
-0.420
-0.415
-0.400
-0.400
-0.410
-0.425
-0.410
-0.405
-0.395
-0.400
-0.400
-0.405
-0.385
-0.400
-0.390
-0.390
-0.400
-0.415
-0.405
-0.405
-0.410
-0.415
-0.420
-0.420
-0.425
-0.415
-0.415
-0.410
-0.435
-0.430
-0.435
-0.420
-0.420
-0.420
-0.420
-0.425
-0.425
-0.415
-0.395
-0.395
-0.390
-0.375
-0.360
-0.340
-0.335
-0.330
-0.335
-0.335
-0.325
-0.320
-0.305
-0.305
-0.315
-0.310
-0.305
-0.300
-0.300
-0.300
-0.310
-0.310
-0.310
-0.315
-0.300
-0.305
-0.315
-0.320
-0.325
-0.310
-0.305
-0.305
-0.320
-0.325
-0.305
-0.310
-0.295
-0.310
-0.325
-0.330
-0.320
-0.320
-0.320
-0.325
-0.350
-0.350
-0.340
-0.335
-0.330
-0.335
-0.340
-0.360
-0.350
-0.350
-0.355
-0.360
-0.355
-0.365
-0.355
-0.350
-0.340
-0.355
-0.350
-0.365
-0.365
-0.350
-0.355
-0.350
-0.370
-0.380
-0.370
-0.360
-0.365
-0.360
-0.365
-0.380
-0.370
-0.365
-0.350
-0.350
-0.350
-0.370
-0.365
-0.345
-0.345
-0.340
-0.355
-0.365
-0.360
-0.355
-0.355
-0.355
-0.375
-0.385
-0.355
-0.360
-0.355
-0.360
-0.360
-0.370
-0.360
-0.345
-0.355
-0.345
-0.345
-0.345
-0.340
-0.310
-0.305
-0.305
-0.310
-0.305
-0.290
-0.285
-0.275
-0.280
-0.280
-0.275
-0.265
-0.255
-0.245
-0.260
-0.265
-0.275
-0.280
-0.265
-0.270
-0.275
-0.280
-0.275
-0.280
-0.275
-0.265
-0.255
-0.240
-0.260
-0.280
-0.310
-0.310
-0.345
-0.360
-0.380
-0.385
-0.380
-0.370
-0.375
-0.385
-0.390
-0.395
-0.385
-0.385
-0.385
-0.395
-0.405
-0.400
-0.375
-0.375
-0.390
-0.395
-0.415
-0.405
-0.400
-0.390
-0.405
-0.425
-0.460
-0.475
-0.505
-0.510
-0.525
-0.540
-0.600
-0.645
-0.630
-0.575
-0.495
-0.385
-0.270
-0.115
 0.090
 0.370
 0.635
 0.810
 0.860
 0.770
 0.475
 0.065
-0.305
-0.500
-0.520
-0.475
-0.410
-0.390
-0.390
-0.400
-0.410
-0.405
-0.385
-0.390
-0.395
-0.405
-0.410
-0.405
-0.400
-0.390
-0.395
-0.410
-0.415
-0.410
-0.395
-0.405
-0.410
-0.405
-0.405
-0.410
-0.390
-0.385
-0.390
-0.395
-0.400
-0.400
-0.400
-0.395
-0.395
-0.405
-0.405
-0.400
-0.395
-0.385
-0.375
-0.385
-0.395
-0.390
-0.385
-0.375
-0.385
-0.395
-0.395
-0.385
-0.375
-0.375
-0.385
-0.395
-0.390
-0.390
-0.365
-0.375
-0.385
-0.395
-0.380
-0.385
-0.375
-0.380
-0.390
-0.380
-0.375
-0.375
-0.375
-0.375
-0.380
-0.390
-0.390
-0.365
-0.370
-0.375
-0.385
-0.390
-0.390
-0.375
-0.365
-0.385
-0.380
-0.390
-0.375
-0.375
-0.365
-0.370
-0.385
-0.395
-0.385
-0.385
-0.370
-0.365
-0.370
-0.375
-0.350
-0.335
-0.320
-0.315
-0.320
-0.325
-0.315
-0.295
-0.285
-0.300
-0.295
-0.285
-0.285
-0.280
-0.270
-0.280
-0.290
-0.295
-0.295
-0.290
-0.280
-0.290
-0.295
-0.310
-0.295
-0.285
-0.280
-0.275
-0.295
-0.305
-0.300
-0.295
-0.295
-0.285
-0.300
-0.305
-0.300
-0.295
-0.300
-0.305
-0.315
-0.310
-0.315
-0.295
-0.300
-0.310
-0.330
-0.340
-0.330
-0.320
-0.320
-0.315
-0.325
-0.335
-0.330
-0.315
-0.320
-0.320
-0.330
-0.345
-0.340
-0.335
-0.330
-0.335
-0.345
-0.350
-0.345
-0.340
-0.335
-0.335
-0.330
-0.335
-0.340
-0.335
-0.320
-0.340
-0.340
-0.350
-0.365
-0.360
-0.345
-0.345
-0.350
-0.350
-0.350
-0.340
-0.340
-0.345
-0.345
-0.380
-0.360
-0.360
-0.345
-0.345
-0.350
-0.355
-0.345
-0.330
-0.330
-0.335
-0.335
-0.340
-0.330
-0.320
-0.290
-0.290
-0.300
-0.305
-0.285
-0.280
-0.275
-0.280
-0.275
-0.270
-0.265
-0.250
-0.230
-0.245
-0.240
-0.255
-0.255
-0.245
-0.235
-0.255
-0.265
-0.260
-0.255
-0.270
-0.265
-0.280
-0.255
-0.250
-0.245
-0.265
-0.280
-0.300
-0.315
-0.325
-0.335
-0.345
-0.330
-0.335
-0.345
-0.360
-0.350
-0.340
-0.335
-0.345
-0.360
-0.365
-0.375
-0.370
-0.365
-0.365
-0.380
-0.375
-0.375
-0.365
-0.370
-0.360
-0.370
-0.380
-0.365
-0.360
-0.350
-0.355
-0.370
-0.385
-0.395
-0.430
-0.445
-0.485
-0.515
-0.565
-0.555
-0.475
-0.355
-0.220
-0.055
 0.185
 0.475
 0.705
 0.820
 0.780
 0.535
 0.145
-0.200
-0.420
-0.500
-0.480
-0.450
-0.410
-0.400
-0.390
-0.390
-0.400
-0.405
-0.425
-0.425
-0.405
-0.395
-0.405
-0.405
-0.415
-0.405
-0.385
-0.390
-0.395
-0.395
-0.395
-0.395
-0.385
-0.390
-0.390
-0.400
-0.425
-0.410
-0.400
-0.395
-0.400
-0.405
-0.425
-0.415
-0.405
-0.405
-0.405
-0.410
-0.415
-0.405
-0.420
-0.405
-0.410
-0.410
-0.420
-0.415
-0.405
-0.395
-0.395
-0.395
-0.400
-0.395
-0.395
-0.405
-0.405
-0.420
-0.435
-0.415
-0.405
-0.395
-0.390
-0.415
-0.405
-0.405
-0.400
-0.395
-0.395
-0.405
-0.420
-0.415
-0.400
-0.395
-0.400
-0.405
-0.425
-0.425
-0.425
-0.420
-0.425
-0.450
-0.445
-0.450
-0.435
-0.445
-0.470
-0.455
-0.460
-0.440
-0.435
-0.425
-0.430
-0.445
-0.450
-0.445
-0.430
-0.420
-0.410
-0.425
-0.420
-0.405
-0.380
-0.370
-0.365
-0.365
-0.365
-0.345
-0.330
-0.315
-0.305
-0.305
-0.320
-0.310
-0.310
-0.305
-0.310
-0.315
-0.320
-0.315
-0.305
-0.305
-0.295
-0.310
-0.320
-0.310
-0.315
-0.295
-0.300
-0.305
-0.300
-0.285
-0.280
-0.290
-0.295
-0.305
-0.325
-0.305
-0.300
-0.300
-0.315
-0.325
-0.335
-0.325
-0.315
-0.320
-0.335
-0.330
-0.340
-0.325
-0.325
-0.320
-0.315
-0.335
-0.335
-0.345
-0.335
-0.325
-0.330
-0.315
-0.335
-0.330
-0.330
-0.330
-0.330
-0.335
-0.340
-0.330
-0.320
-0.315
-0.325
-0.335
-0.355
-0.345
-0.340
-0.335
-0.320
-0.325
-0.350
-0.330
-0.315
-0.315
-0.330
-0.330
-0.335
-0.335
-0.330
-0.330
-0.330
-0.340
-0.340
-0.340
-0.325
-0.325
-0.325
-0.345
-0.350
-0.340
-0.330
-0.320
-0.310
-0.305
-0.305
-0.275
-0.270
-0.255
-0.260
-0.265
-0.260
-0.250
-0.235
-0.235
-0.220
-0.235
-0.235
-0.220
-0.230
-0.225
-0.235
-0.245
-0.255
-0.240
-0.230
-0.230
-0.250
-0.255
-0.250
-0.230
-0.205
-0.195
-0.210
-0.230
-0.270
-0.270
-0.285
-0.285
-0.310
-0.330
-0.340
-0.340
-0.345
-0.350
-0.350
-0.340
-0.355
-0.345
-0.340
-0.340
-0.345
-0.355
-0.370
-0.355
-0.370
-0.345
-0.340
-0.360
-0.380
-0.360
-0.345
-0.350
-0.350
-0.355
-0.380
-0.390
-0.395
-0.425
-0.455
-0.475
-0.510
-0.545
-0.540
-0.495
-0.405
-0.295
-0.160
 0.040
 0.315
 0.595
 0.800
 0.885
 0.795
 0.520
 0.130
-0.215
-0.425
-0.500
-0.490
-0.450
-0.400
-0.390
-0.395
-0.395
-0.400
-0.390
-0.380
-0.385
-0.385
-0.400
-0.410
-0.410
-0.390
-0.390
-0.405
-0.405
-0.415
-0.410
-0.395
-0.395
-0.400
-0.415
-0.415
-0.415
-0.400
-0.390
-0.390
-0.410
-0.415
-0.405
-0.395
-0.395
-0.395
-0.405
-0.410
-0.410
-0.400
-0.390
-0.395
-0.410
-0.425
-0.415
-0.405
-0.410
-0.405
-0.415
-0.425
-0.425
-0.410
-0.395
-0.390
-0.400
-0.410
-0.410
-0.400
-0.390
-0.410
-0.420
-0.420
-0.415
-0.415
-0.405
-0.420
-0.415
-0.425
-0.410
-0.400
-0.405
-0.400
-0.400
-0.410
-0.400
-0.395
-0.395
-0.405
-0.410
-0.425
-0.425
-0.410
-0.410
-0.420
-0.430
-0.445
-0.440
-0.435
-0.430
-0.430
-0.450
-0.445
-0.445
-0.435
-0.435
-0.445
-0.440
-0.450
-0.430
-0.430
-0.415
-0.400
-0.400
-0.385
-0.365
-0.335
-0.330
-0.325
-0.330
-0.330
-0.310
-0.295
-0.285
-0.290
-0.290
-0.310
-0.295
-0.285
-0.280
-0.300
-0.290
-0.295
-0.290
-0.280
-0.275
-0.275
-0.290
-0.290
-0.285
-0.270
-0.270
-0.270
-0.275
-0.290
-0.285
-0.275
-0.275
-0.290
-0.295
-0.305
-0.295
-0.295
-0.285
-0.290
-0.300
-0.305
-0.310
-0.295
-0.300
-0.305
-0.310
-0.325
-0.325
-0.315
-0.310
-0.315
-0.315
-0.325
-0.320
-0.310
-0.320
-0.315
-0.330
-0.330
-0.320
-0.310
-0.310
-0.310
-0.330
-0.335
-0.330
-0.320
-0.325
-0.325
-0.330
-0.335
-0.330
-0.325
-0.325
-0.320
-0.325
-0.330
-0.325
-0.315
-0.305
-0.325
-0.315
-0.335
-0.330
-0.310
-0.320
-0.330
-0.330
-0.335
-0.330
-0.330
-0.320
-0.320
-0.330
-0.330
-0.325
-0.315
-0.315
-0.315
-0.330
-0.330
-0.320
-0.315
-0.305
-0.305
-0.295
-0.315
-0.300
-0.275
-0.255
-0.255
-0.260
-0.265
-0.255
-0.235
-0.230
-0.225
-0.220
-0.220
-0.215
-0.200
-0.205
-0.205
-0.225
-0.235
-0.240
-0.230
-0.215
-0.240
-0.240
-0.250
-0.235
-0.210
-0.200
-0.220
-0.255
-0.275
-0.285
-0.300
-0.305
-0.320
-0.330
-0.325
-0.320
-0.330
-0.330
-0.335
-0.340
-0.345
-0.340
-0.335
-0.320
-0.325
-0.335
-0.345
-0.345
-0.345
-0.335
-0.340
-0.345
-0.355
-0.340
-0.340
-0.340
-0.340
-0.345
-0.355
-0.365
-0.370
-0.405
-0.445
-0.480
-0.495
-0.520